# Result from Satelite number: 23333
#
#  t [min]          X [km]           Y [km]           Z [km]      VX [km/s]    VY [km/s]    VZ [km/s]
   0.00000000   -9301.24542292    3326.10200382    2318.36441127 -8.729303005 -0.828225037 -0.122314827
 120.00000000  -44672.91239679   -6213.11996581   -1738.80131727 -3.719475070 -1.336673022 -0.621888261
 240.00000000  -67053.08885387  -14994.69685946   -5897.99072793 -2.860576613 -1.183771565 -0.568473909
 360.00000000  -85227.84253168  -22897.08484471   -9722.59184564 -2.426469823 -1.078592475 -0.525341431
 480.00000000 -100986.00419136  -30171.19698695  -13283.77044765 -2.147108978 -1.000530827 -0.491587582
 600.00000000 -115093.00686386  -36962.56316477  -16634.15682929 -1.945446188 -0.938947736 -0.464199202
 720.00000000 -127965.80064891  -43363.32967165  -19809.90480432 -1.789652016 -0.888278463 -0.441254468
 840.00000000 -139863.28332206  -49436.45704153  -22836.80438139 -1.663762568 -0.845315913 -0.421548627
 960.00000000 -150960.22978258  -55227.45413896  -25734.01408879 -1.558730986 -0.808061065 -0.404293846
1080.00000000 -161381.71414630  -60770.64040903  -28516.26290017 -1.468977174 -0.775190459 -0.388951810
1200.00000000 -171221.18736947  -66092.76474442  -31195.19847387 -1.390837596 -0.745785633 -0.375140398
1320.00000000 -180550.82888745  -71215.23290630  -33780.24938270 -1.321788672 -0.719184752 -0.362579495
1440.00000000 -189427.87533074  -76155.54943344  -36279.19882816 -1.260024473 -0.694896053 -0.351058133
1560.00000000 -197898.69401408  -80928.29015181  -38698.57972447 -1.204211888 -0.672544709 -0.340413731
1600.00000000 -200638.82986236  -82484.14969882  -39488.34331447 -1.186748462 -0.665472422 -0.337037582
