# Result from Satelite number: 23599
#
# t [min]          X [km]          Y [km]          Z [km]     VX [km/s]    VY [km/s]    VZ [km/s]
  0.00000000    9892.63794341    35.76144969     -1.08228838  3.556643237  6.456009375  0.783610890
 20.00000000   11931.95642997   7340.74973750   886.46365987  0.308329116  5.532328972  0.672887281
 40.00000000   11321.71039205  13222.84749156  1602.40119049 -1.151973982  4.285810871  0.521919425
 60.00000000    9438.29395675  17688.05450261  2146.59293402 -1.907904054  3.179955046  0.387692479
 80.00000000    6872.08634639  20910.11016811  2539.79945034 -2.323995367  2.207398462  0.269506121
100.00000000    3933.37509798  23024.07662542  2798.25966746 -2.542860616  1.327134966  0.162450076
120.00000000     816.64091546  24118.98675475  2932.69459428 -2.626838010  0.504502763  0.062344306
140.00000000   -2334.41705804  24246.86096326  2949.36448841 -2.602259646 -0.288058266 -0.034145135
160.00000000   -5394.31798039  23429.42716149  2850.86832586 -2.474434068 -1.074055982 -0.129868366
180.00000000   -8233.35130237  21661.24480883  2636.51456118 -2.230845533 -1.875742344 -0.227528603
200.00000000  -10693.96497348  18909.88168891  2302.33707548 -1.835912433 -2.716169865 -0.329931880
220.00000000  -12553.89669904  15114.63990716  1840.93573231 -1.212478879 -3.619036996 -0.439970633
240.00000000  -13450.20591864  10190.57904289  1241.95958736 -0.189082511 -4.596701971 -0.559173899
260.00000000  -12686.60437121   4079.31106161   498.27078614  1.664498211 -5.559889865 -0.676747779
280.00000000   -8672.55867753  -2827.56823315  -342.59644716  5.515079852 -5.551222962 -0.676360044
300.00000000    1153.31498060  -6411.98692060  -779.87288941  9.689818102  1.388598425  0.167868798
320.00000000    9542.79201056   -533.71253081   -65.73165428  3.926947087  6.459583539  0.785686755
340.00000000   11868.80960100   6861.59590848   833.72780602  0.452957852  5.632811328  0.685262323
360.00000000   11376.23941678  12858.97121366  1563.40660172 -1.087665695  4.374693347  0.532207051
380.00000000    9547.70300782  17421.48570758  2118.56907515 -1.876540262  3.253891728  0.395810243
400.00000000    7008.51470263  20725.47471227  2520.56064289 -2.308703599  2.270724438  0.276138613
420.00000000    4083.18551180  22910.88306802  2786.35642660 -2.536610941  1.383768875  0.168165414
440.00000000     970.13107533  24071.19896282  2927.30875440 -2.626673095  0.557274717  0.067549303
460.00000000   -2183.75499348  24261.30188126  2950.09189560 -2.607082241 -0.236785937 -0.029112844
480.00000000   -5252.49066783  23505.58108388  2857.68628654 -2.484465059 -1.022158411 -0.124702643
500.00000000   -8107.41437587  21801.13395060  2649.76852683 -2.247669530 -1.821071275 -0.221914939
520.00000000  -10594.01813094  19118.22269010  2322.77197767 -1.863224062 -2.656353699 -0.323512642
540.00000000  -12496.70758499  15399.13096351  1869.75958053 -1.258272118 -3.551534022 -0.432332913
560.00000000  -13467.50382653  10561.43040038  1280.84842178 -0.272050695 -4.520503543 -0.550014833
580.00000000  -12848.00717497   4541.72432009   548.59976478  1.493938056 -5.489644146 -0.667479244
600.00000000   -9152.79920397  -2343.88902799  -287.93741332  5.127695273 -5.650584983 -0.686013644
620.00000000     280.12478642  -6500.11368508  -790.36236302  9.779642904  0.581430120  0.074124421
640.00000000    9166.21406115  -1093.48756223  -129.53833135  4.316926785  6.438465969  0.785095966
660.00000000   11794.74563870   6381.74484842   780.82775971  0.604642523  5.731705440  0.697571522
680.00000000   11424.80363789  12493.80833338  1524.27683836 -1.021148661  4.463489406  0.542537702
700.00000000    9652.78920084  17153.46470428  2090.43413681 -1.844382696  3.327595388  0.403924198
720.00000000    7141.24742526  20538.97115158  2501.18059966 -2.293079623  2.333598993  0.282727441






































