# Result from Satelite number: 28626
#
#  t [min]          X [km]           Y [km]           Z [km]      VX [km/s]    VY [km/s]    VZ [km/s]
   0.00000000   42080.71852213   -2646.86387436       0.81851294  0.193105177  3.068688251  0.000438449
 120.00000000   37740.00085593   18802.76872802       3.45512584 -1.371035206  2.752105932  0.000336883
 240.00000000   23232.82515008   35187.33981802       4.98927428 -2.565776620  1.694193132  0.000163365
 360.00000000    2467.44290178   42093.60909959       5.15062987 -3.069341800  0.179976276 -0.000031739
 480.00000000  -18962.59052991   37661.66243819       4.04433258 -2.746151982 -1.382675777 -0.000197633
 600.00000000  -35285.00095313   23085.44402778       2.08711880 -1.683277908 -2.572893625 -0.000296282
 720.00000000  -42103.20138132    2291.06228893      -0.13274964 -0.166974816 -3.070104560 -0.000311007
 840.00000000  -37580.31858370  -19120.40485693      -2.02755702  1.394367848 -2.740341612 -0.000248591
 960.00000000  -22934.20761876  -35381.23870806      -3.16495932  2.580167539 -1.672360951 -0.000134907
1080.00000000   -2109.90332389  -42110.71508198      -3.36507889  3.070935369 -0.153808390 -0.000005855
1200.00000000   19282.77774728  -37495.59250598      -2.71861462  2.734400524  1.406220933  0.000103486
1320.00000000   35480.60990600  -22779.03375285      -1.52841859  1.661210676  2.587414593  0.000168300
1440.00000000   42119.96263499   -1925.77567263      -0.19827433  0.140521206  3.071541613  0.000179561
