# Result from Satelite number: 14128
#
#  t [min]          X [km]           Y [km]           Z [km]      VX [km/s]    VY [km/s]    VZ [km/s]
   0.00000000   34747.57932696   24502.37114079      -1.32832986 -1.731642662  2.452772615  0.608510081
 120.00000000   18263.33439094   38159.96004751    4186.18304085 -2.744396611  1.255583260  0.528558932
 240.00000000   -3023.38840703   41783.13186459    7273.03412906 -3.035574793 -0.271656544  0.309645251
 360.00000000  -23516.34391907   34424.42065671    8448.49867693 -2.529120477 -1.726186020  0.009582303
 480.00000000  -37837.46699511   18028.39727170    7406.25540271 -1.360069525 -2.725794686 -0.292555349
 600.00000000  -42243.58460661   -3093.72887774    4422.91711801  0.163110919 -3.009980598 -0.517584362
 720.00000000  -35597.57919549  -23407.91145393     282.09554383  1.641405246 -2.506773678 -0.606963478
 840.00000000  -19649.19834455  -37606.11623860   -3932.71525948  2.689647056 -1.349150016 -0.537710698
 960.00000000    1431.30912160  -41982.04949668   -7120.45467057  3.035263353  0.160882945 -0.327993994
1080.00000000   22136.97605384  -35388.19823762   -8447.62393401  2.587624889  1.630097136 -0.032349004
1200.00000000   37050.15790219  -19537.23321425   -7564.83463543  1.461844494  2.674654256  0.272202191
1320.00000000   42253.81760945    1431.81867593   -4699.87621174 -0.049247334  3.019518960  0.505890058
1440.00000000   36366.59147396   22023.54245720    -601.47121821 -1.549681546  2.571788981  0.607057418
1560.00000000   20922.12287985   36826.33975981    3654.91125886 -2.644070068  1.447521216  0.548722983
1680.00000000     -23.77224182   41945.51688402    6950.29891751 -3.043358385 -0.057417440  0.346112094
1800.00000000  -20964.17821076   36039.06206172    8418.91984963 -2.642795221 -1.546099886  0.052725852
1920.00000000  -36401.63863057   20669.75286162    7677.19769359 -1.549488154 -2.627052310 -0.254079652
2040.00000000  -42298.30327543    -119.03351118    4922.96388841 -0.052232768 -3.018152669 -0.493827331
2160.00000000  -37125.62383511  -20879.63058368     879.86971348  1.456499841 -2.619358421 -0.604081694
2280.00000000  -22250.12320553  -36182.74736487   -3393.15365183  2.583161226 -1.536647628 -0.556404555
2400.00000000   -1563.06258654  -42035.43179159   -6780.02161760  3.034917506 -0.052702046 -0.363395654
2520.00000000   19531.64069587  -36905.65470956   -8395.46892032  2.693682199  1.446079999 -0.075256054
2640.00000000   35516.53506142  -22123.71916638   -7815.04516935  1.646882125  2.568416058  0.232985912
2760.00000000   42196.03535976   -1547.32646751   -5187.39401981  0.166491841  3.019211549  0.480665780
2880.00000000   37802.25393045   19433.57330019   -1198.66634226 -1.359930580  2.677830903  0.602507466

